# Temperatura_=_20.0
# Concentracion g/m^3_=_10000.0
# C_Vs_to_Am_M_A/Vsm_=_25649819763.59163
# pendiente_HvsI_1/m_=_3716.3
# ordenada_HvsI_A/m_=_1297.0
# frecuencia_Hz_=_108509.561365752
# Promedio de 26 ciclos

Tiempo_(s)	Campo_(V.s)	Magnetizacion_(V.s)	Campo_(kA/m)	Magnetizacion_(A/m)
0.000000e+00	-6.840235e-09	-1.050032e-08	-5.698042e+01	-3.461395e+02
1.000000e-08	-6.840299e-09	-1.050473e-08	-5.698119e+01	-3.461549e+02
2.000000e-08	-6.840199e-09	-1.050482e-08	-5.698067e+01	-3.461542e+02
3.000000e-08	-6.839946e-09	-1.049952e-08	-5.697866e+01	-3.461375e+02
4.000000e-08	-6.839504e-09	-1.048493e-08	-5.697481e+01	-3.461046e+02
5.000000e-08	-6.838786e-09	-1.047117e-08	-5.696858e+01	-3.460556e+02
6.000000e-08	-6.837685e-09	-1.048127e-08	-5.695917e+01	-3.459906e+02
7.000000e-08	-6.836112e-09	-1.052766e-08	-5.694589e+01	-3.459094e+02
8.000000e-08	-6.834039e-09	-1.058275e-08	-5.692846e+01	-3.458122e+02
9.000000e-08	-6.831449e-09	-1.057805e-08	-5.690665e+01	-3.456989e+02
1.000000e-07	-6.828328e-09	-1.043541e-08	-5.688044e+01	-3.455695e+02
1.100000e-07	-6.824767e-09	-1.022084e-08	-5.685064e+01	-3.454240e+02
1.200000e-07	-6.820892e-09	-1.018397e-08	-5.681836e+01	-3.452625e+02
1.300000e-07	-6.816800e-09	-1.044178e-08	-5.678441e+01	-3.450849e+02
1.400000e-07	-6.812535e-09	-1.070016e-08	-5.674905e+01	-3.448912e+02
1.500000e-07	-6.808050e-09	-1.066062e-08	-5.671176e+01	-3.446815e+02
1.600000e-07	-6.803248e-09	-1.049680e-08	-5.667163e+01	-3.444558e+02
1.700000e-07	-6.798109e-09	-1.048909e-08	-5.662864e+01	-3.442141e+02
1.800000e-07	-6.792674e-09	-1.051752e-08	-5.658332e+01	-3.439563e+02
1.900000e-07	-6.786905e-09	-1.033966e-08	-5.653518e+01	-3.436826e+02
2.000000e-07	-6.780807e-09	-1.021098e-08	-5.648432e+01	-3.433929e+02
2.100000e-07	-6.774472e-09	-1.039245e-08	-5.643168e+01	-3.430872e+02
2.200000e-07	-6.767857e-09	-1.050512e-08	-5.637658e+01	-3.427655e+02
2.300000e-07	-6.760876e-09	-1.032183e-08	-5.631813e+01	-3.424279e+02
2.400000e-07	-6.753552e-09	-1.023353e-08	-5.625690e+01	-3.420744e+02
2.500000e-07	-6.745964e-09	-1.032658e-08	-5.619370e+01	-3.417050e+02
2.600000e-07	-6.738178e-09	-1.020174e-08	-5.612890e+01	-3.413196e+02
2.700000e-07	-6.730215e-09	-1.003671e-08	-5.606273e+01	-3.409184e+02
2.800000e-07	-6.722097e-09	-1.019493e-08	-5.599526e+01	-3.405014e+02
2.900000e-07	-6.713790e-09	-1.030698e-08	-5.592615e+01	-3.400685e+02
3.000000e-07	-6.705195e-09	-1.013335e-08	-5.585452e+01	-3.396198e+02
3.100000e-07	-6.696218e-09	-1.009040e-08	-5.577954e+01	-3.391553e+02
3.200000e-07	-6.686776e-09	-1.023019e-08	-5.570056e+01	-3.386750e+02
3.300000e-07	-6.676793e-09	-1.017401e-08	-5.561682e+01	-3.381789e+02
3.400000e-07	-6.666229e-09	-1.011869e-08	-5.552843e+01	-3.376672e+02
3.500000e-07	-6.655182e-09	-1.028982e-08	-5.543629e+01	-3.371397e+02
3.600000e-07	-6.643735e-09	-1.030442e-08	-5.534069e+01	-3.365966e+02
3.700000e-07	-6.631909e-09	-1.018464e-08	-5.524203e+01	-3.360378e+02
3.800000e-07	-6.619764e-09	-1.024259e-08	-5.514087e+01	-3.354633e+02
3.900000e-07	-6.607317e-09	-1.023111e-08	-5.503720e+01	-3.348733e+02
4.000000e-07	-6.594545e-09	-1.009824e-08	-5.493082e+01	-3.342677e+02
4.100000e-07	-6.581439e-09	-1.013660e-08	-5.482167e+01	-3.336465e+02
4.200000e-07	-6.568024e-09	-1.014970e-08	-5.470996e+01	-3.330099e+02
4.300000e-07	-6.554332e-09	-9.973262e-09	-5.459591e+01	-3.323577e+02
4.400000e-07	-6.540372e-09	-9.967294e-09	-5.447962e+01	-3.316901e+02
4.500000e-07	-6.526123e-09	-1.005555e-08	-5.436090e+01	-3.310070e+02
4.600000e-07	-6.511551e-09	-9.916649e-09	-5.423927e+01	-3.303086e+02
4.700000e-07	-6.496612e-09	-9.787994e-09	-5.411458e+01	-3.295948e+02
4.800000e-07	-6.481243e-09	-9.841960e-09	-5.398636e+01	-3.288657e+02
4.900000e-07	-6.465415e-09	-9.853421e-09	-5.385431e+01	-3.281212e+02
5.000000e-07	-6.449191e-09	-9.756848e-09	-5.371890e+01	-3.273615e+02
5.100000e-07	-6.432652e-09	-9.722990e-09	-5.358079e+01	-3.265866e+02
5.200000e-07	-6.415803e-09	-9.783956e-09	-5.344034e+01	-3.257965e+02
5.300000e-07	-6.398664e-09	-9.788521e-09	-5.329752e+01	-3.249913e+02
5.400000e-07	-6.381274e-09	-9.685383e-09	-5.315265e+01	-3.241709e+02
5.500000e-07	-6.363635e-09	-9.656060e-09	-5.300571e+01	-3.233354e+02
5.600000e-07	-6.345743e-09	-9.700733e-09	-5.285657e+01	-3.224849e+02
5.700000e-07	-6.327548e-09	-9.628014e-09	-5.270484e+01	-3.216194e+02
5.800000e-07	-6.308990e-09	-9.562168e-09	-5.255012e+01	-3.207390e+02
5.900000e-07	-6.290084e-09	-9.611737e-09	-5.239252e+01	-3.198436e+02
6.000000e-07	-6.270855e-09	-9.586543e-09	-5.223216e+01	-3.189334e+02
6.100000e-07	-6.251340e-09	-9.498529e-09	-5.206960e+01	-3.180083e+02
6.200000e-07	-6.231573e-09	-9.496066e-09	-5.190511e+01	-3.170684e+02
6.300000e-07	-6.211613e-09	-9.482130e-09	-5.173912e+01	-3.161138e+02
6.400000e-07	-6.191489e-09	-9.406568e-09	-5.157176e+01	-3.151445e+02
6.500000e-07	-6.171206e-09	-9.401425e-09	-5.140291e+01	-3.141605e+02
6.600000e-07	-6.150755e-09	-9.420298e-09	-5.123252e+01	-3.131619e+02
6.700000e-07	-6.130076e-09	-9.363173e-09	-5.106020e+01	-3.121488e+02
6.800000e-07	-6.109126e-09	-9.310315e-09	-5.088567e+01	-3.111211e+02
6.900000e-07	-6.087922e-09	-9.298352e-09	-5.070906e+01	-3.100790e+02
7.000000e-07	-6.066467e-09	-9.258824e-09	-5.053035e+01	-3.090224e+02
7.100000e-07	-6.044734e-09	-9.196145e-09	-5.034927e+01	-3.079515e+02
7.200000e-07	-6.022739e-09	-9.174569e-09	-5.016599e+01	-3.068662e+02
7.300000e-07	-6.000492e-09	-9.173770e-09	-4.998055e+01	-3.057666e+02
7.400000e-07	-5.977925e-09	-9.145451e-09	-4.979250e+01	-3.046529e+02
7.500000e-07	-5.955006e-09	-9.102784e-09	-4.960146e+01	-3.035250e+02
7.600000e-07	-5.931786e-09	-9.064742e-09	-4.940783e+01	-3.023829e+02
7.700000e-07	-5.908300e-09	-9.018172e-09	-4.921213e+01	-3.012268e+02
7.800000e-07	-5.884577e-09	-8.964391e-09	-4.901461e+01	-3.000567e+02
7.900000e-07	-5.860648e-09	-8.931785e-09	-4.881550e+01	-2.988726e+02
8.000000e-07	-5.836515e-09	-8.902624e-09	-4.861461e+01	-2.976746e+02
8.100000e-07	-5.812158e-09	-8.859354e-09	-4.841174e+01	-2.964628e+02
8.200000e-07	-5.787568e-09	-8.828178e-09	-4.820685e+01	-2.952372e+02
8.300000e-07	-5.762719e-09	-8.802892e-09	-4.799968e+01	-2.939978e+02
8.400000e-07	-5.737548e-09	-8.752209e-09	-4.778986e+01	-2.927448e+02
8.500000e-07	-5.712026e-09	-8.695217e-09	-4.757705e+01	-2.914782e+02
8.600000e-07	-5.686142e-09	-8.661294e-09	-4.736121e+01	-2.901980e+02
8.700000e-07	-5.659857e-09	-8.627839e-09	-4.714185e+01	-2.889043e+02
8.800000e-07	-5.633184e-09	-8.585360e-09	-4.691908e+01	-2.875971e+02
8.900000e-07	-5.606146e-09	-8.546671e-09	-4.669359e+01	-2.862766e+02
9.000000e-07	-5.578783e-09	-8.501923e-09	-4.646557e+01	-2.849428e+02
9.100000e-07	-5.551167e-09	-8.448224e-09	-4.623546e+01	-2.835957e+02
9.200000e-07	-5.523333e-09	-8.402442e-09	-4.600369e+01	-2.822354e+02
9.300000e-07	-5.495298e-09	-8.360561e-09	-4.577035e+01	-2.808620e+02
9.400000e-07	-5.467086e-09	-8.309963e-09	-4.553552e+01	-2.794756e+02
9.500000e-07	-5.438685e-09	-8.266915e-09	-4.529904e+01	-2.780761e+02
9.600000e-07	-5.410088e-09	-8.235896e-09	-4.506088e+01	-2.766637e+02
9.700000e-07	-5.381260e-09	-8.195348e-09	-4.482089e+01	-2.752384e+02
9.800000e-07	-5.352162e-09	-8.141012e-09	-4.457866e+01	-2.738004e+02
9.900000e-07	-5.322817e-09	-8.090718e-09	-4.433415e+01	-2.723495e+02
1.000000e-06	-5.293228e-09	-8.046051e-09	-4.408763e+01	-2.708861e+02
1.010000e-06	-5.263384e-09	-7.997767e-09	-4.383901e+01	-2.694100e+02
1.020000e-06	-5.233295e-09	-7.952949e-09	-4.358834e+01	-2.679214e+02
1.030000e-06	-5.202969e-09	-7.910799e-09	-4.333577e+01	-2.664203e+02
1.040000e-06	-5.172423e-09	-7.866745e-09	-4.308128e+01	-2.649068e+02
1.050000e-06	-5.141675e-09	-7.823204e-09	-4.282505e+01	-2.633811e+02
1.060000e-06	-5.110710e-09	-7.778343e-09	-4.256711e+01	-2.618430e+02
1.070000e-06	-5.079543e-09	-7.726739e-09	-4.230763e+01	-2.602928e+02
1.080000e-06	-5.048220e-09	-7.671027e-09	-4.204688e+01	-2.587305e+02
1.090000e-06	-5.016733e-09	-7.622976e-09	-4.178478e+01	-2.571561e+02
1.100000e-06	-4.985062e-09	-7.578712e-09	-4.152106e+01	-2.555698e+02
1.110000e-06	-4.953198e-09	-7.530763e-09	-4.125576e+01	-2.539716e+02
1.120000e-06	-4.921158e-09	-7.479645e-09	-4.098905e+01	-2.523615e+02
1.130000e-06	-4.888934e-09	-7.426876e-09	-4.072073e+01	-2.507398e+02
1.140000e-06	-4.856498e-09	-7.377445e-09	-4.045052e+01	-2.491063e+02
1.150000e-06	-4.823827e-09	-7.328465e-09	-4.017815e+01	-2.474613e+02
1.160000e-06	-4.790866e-09	-7.273714e-09	-3.990340e+01	-2.458048e+02
1.170000e-06	-4.757643e-09	-7.218426e-09	-3.962654e+01	-2.441368e+02
1.180000e-06	-4.724152e-09	-7.173221e-09	-3.934733e+01	-2.424575e+02
1.190000e-06	-4.690309e-09	-7.131578e-09	-3.906504e+01	-2.407669e+02
1.200000e-06	-4.656100e-09	-7.082117e-09	-3.877968e+01	-2.390651e+02
1.210000e-06	-4.621572e-09	-7.025703e-09	-3.849178e+01	-2.373522e+02
1.220000e-06	-4.586736e-09	-6.968050e-09	-3.820138e+01	-2.356282e+02
1.230000e-06	-4.551633e-09	-6.913110e-09	-3.790892e+01	-2.338933e+02
1.240000e-06	-4.516279e-09	-6.858960e-09	-3.761445e+01	-2.321475e+02
1.250000e-06	-4.480701e-09	-6.806499e-09	-3.731803e+01	-2.303909e+02
1.260000e-06	-4.444975e-09	-6.756397e-09	-3.702040e+01	-2.286236e+02
1.270000e-06	-4.409097e-09	-6.709411e-09	-3.672157e+01	-2.268456e+02
1.280000e-06	-4.373043e-09	-6.663749e-09	-3.642136e+01	-2.250571e+02
1.290000e-06	-4.336830e-09	-6.615222e-09	-3.611986e+01	-2.232581e+02
1.300000e-06	-4.300477e-09	-6.559985e-09	-3.581720e+01	-2.214487e+02
1.310000e-06	-4.263970e-09	-6.497083e-09	-3.551327e+01	-2.196291e+02
1.320000e-06	-4.227293e-09	-6.433902e-09	-3.520783e+01	-2.177992e+02
1.330000e-06	-4.190449e-09	-6.375123e-09	-3.490093e+01	-2.159591e+02
1.340000e-06	-4.153453e-09	-6.320562e-09	-3.459281e+01	-2.141091e+02
1.350000e-06	-4.116291e-09	-6.266843e-09	-3.428325e+01	-2.122490e+02
1.360000e-06	-4.078951e-09	-6.216644e-09	-3.397210e+01	-2.103791e+02
1.370000e-06	-4.041421e-09	-6.170364e-09	-3.365933e+01	-2.084994e+02
1.380000e-06	-4.003677e-09	-6.119701e-09	-3.334475e+01	-2.066100e+02
1.390000e-06	-3.965728e-09	-6.061064e-09	-3.302853e+01	-2.047110e+02
1.400000e-06	-3.927574e-09	-5.994771e-09	-3.271074e+01	-2.028025e+02
1.410000e-06	-3.889236e-09	-5.926415e-09	-3.239139e+01	-2.008845e+02
1.420000e-06	-3.850687e-09	-5.862338e-09	-3.207024e+01	-1.989572e+02
1.430000e-06	-3.811931e-09	-5.806512e-09	-3.174740e+01	-1.970207e+02
1.440000e-06	-3.773037e-09	-5.752456e-09	-3.142339e+01	-1.950749e+02
1.450000e-06	-3.734013e-09	-5.696248e-09	-3.109841e+01	-1.931201e+02
1.460000e-06	-3.694846e-09	-5.642528e-09	-3.077228e+01	-1.911563e+02
1.470000e-06	-3.655523e-09	-5.584815e-09	-3.044474e+01	-1.891836e+02
1.480000e-06	-3.616074e-09	-5.521139e-09	-3.011615e+01	-1.872021e+02
1.490000e-06	-3.576505e-09	-5.454970e-09	-2.978667e+01	-1.852119e+02
1.500000e-06	-3.536792e-09	-5.387747e-09	-2.945607e+01	-1.832131e+02
1.510000e-06	-3.496951e-09	-5.322421e-09	-2.912433e+01	-1.812058e+02
1.520000e-06	-3.457003e-09	-5.259539e-09	-2.879154e+01	-1.791900e+02
1.530000e-06	-3.416921e-09	-5.196694e-09	-2.845764e+01	-1.771659e+02
1.540000e-06	-3.376722e-09	-5.134980e-09	-2.812275e+01	-1.751335e+02
1.550000e-06	-3.336411e-09	-5.071432e-09	-2.778694e+01	-1.730930e+02
1.560000e-06	-3.295934e-09	-5.004984e-09	-2.744980e+01	-1.710444e+02
1.570000e-06	-3.255288e-09	-4.942838e-09	-2.711126e+01	-1.689879e+02
1.580000e-06	-3.214475e-09	-4.882949e-09	-2.677124e+01	-1.669235e+02
1.590000e-06	-3.173486e-09	-4.822631e-09	-2.642952e+01	-1.648514e+02
1.600000e-06	-3.132316e-09	-4.761483e-09	-2.608629e+01	-1.627715e+02
1.610000e-06	-3.090960e-09	-4.698875e-09	-2.574171e+01	-1.606841e+02
1.620000e-06	-3.049413e-09	-4.631018e-09	-2.539548e+01	-1.585893e+02
1.630000e-06	-3.007690e-09	-4.553414e-09	-2.504750e+01	-1.564870e+02
1.640000e-06	-2.965781e-09	-4.476815e-09	-2.469785e+01	-1.543775e+02
1.650000e-06	-2.923650e-09	-4.410627e-09	-2.434647e+01	-1.522607e+02
1.660000e-06	-2.881331e-09	-4.354494e-09	-2.399357e+01	-1.501369e+02
1.670000e-06	-2.838859e-09	-4.301560e-09	-2.363925e+01	-1.480061e+02
1.680000e-06	-2.796233e-09	-4.246841e-09	-2.328355e+01	-1.458684e+02
1.690000e-06	-2.753438e-09	-4.187859e-09	-2.292646e+01	-1.437240e+02
1.700000e-06	-2.710482e-09	-4.118340e-09	-2.256821e+01	-1.415728e+02
1.710000e-06	-2.667380e-09	-4.041774e-09	-2.220889e+01	-1.394150e+02
1.720000e-06	-2.624157e-09	-3.962033e-09	-2.184852e+01	-1.372508e+02
1.730000e-06	-2.580812e-09	-3.886201e-09	-2.148717e+01	-1.350802e+02
1.740000e-06	-2.537314e-09	-3.819768e-09	-2.112479e+01	-1.329032e+02
1.750000e-06	-2.493682e-09	-3.761087e-09	-2.076132e+01	-1.307201e+02
1.760000e-06	-2.449938e-09	-3.707437e-09	-2.039698e+01	-1.285309e+02
1.770000e-06	-2.406076e-09	-3.653446e-09	-2.003178e+01	-1.263358e+02
1.780000e-06	-2.362106e-09	-3.594172e-09	-1.966560e+01	-1.241347e+02
1.790000e-06	-2.318043e-09	-3.523668e-09	-1.929863e+01	-1.219279e+02
1.800000e-06	-2.273864e-09	-3.446670e-09	-1.893088e+01	-1.197154e+02
1.810000e-06	-2.229588e-09	-3.371911e-09	-1.856234e+01	-1.174973e+02
1.820000e-06	-2.185243e-09	-3.301564e-09	-1.819319e+01	-1.152738e+02
1.830000e-06	-2.140812e-09	-3.233384e-09	-1.782333e+01	-1.130448e+02
1.840000e-06	-2.096299e-09	-3.167987e-09	-1.745269e+01	-1.108107e+02
1.850000e-06	-2.051709e-09	-3.108084e-09	-1.708136e+01	-1.085713e+02
1.860000e-06	-2.007037e-09	-3.049696e-09	-1.670936e+01	-1.063269e+02
1.870000e-06	-1.962291e-09	-2.987234e-09	-1.633669e+01	-1.040776e+02
1.880000e-06	-1.917494e-09	-2.916233e-09	-1.596346e+01	-1.018234e+02
1.890000e-06	-1.872607e-09	-2.840931e-09	-1.558969e+01	-9.956445e+01
1.900000e-06	-1.827632e-09	-2.768195e-09	-1.521526e+01	-9.730088e+01
1.910000e-06	-1.782610e-09	-2.699227e-09	-1.484030e+01	-9.503278e+01
1.920000e-06	-1.737552e-09	-2.630828e-09	-1.446505e+01	-9.276026e+01
1.930000e-06	-1.692445e-09	-2.561245e-09	-1.408934e+01	-9.048341e+01
1.940000e-06	-1.647272e-09	-2.493631e-09	-1.371292e+01	-8.820235e+01
1.950000e-06	-1.602042e-09	-2.427653e-09	-1.333601e+01	-8.591718e+01
1.960000e-06	-1.556733e-09	-2.361599e-09	-1.295849e+01	-8.362801e+01
1.970000e-06	-1.511357e-09	-2.292731e-09	-1.258052e+01	-8.133495e+01
1.980000e-06	-1.465916e-09	-2.222594e-09	-1.220211e+01	-7.903809e+01
1.990000e-06	-1.420412e-09	-2.154408e-09	-1.182312e+01	-7.673756e+01
2.000000e-06	-1.374820e-09	-2.083838e-09	-1.144331e+01	-7.443344e+01
2.010000e-06	-1.329130e-09	-2.009662e-09	-1.106267e+01	-7.212586e+01
2.020000e-06	-1.283372e-09	-1.936137e-09	-1.068153e+01	-6.981492e+01
2.030000e-06	-1.237547e-09	-1.866194e-09	-1.029977e+01	-6.750073e+01
2.040000e-06	-1.191660e-09	-1.799410e-09	-9.917502e+00	-6.518339e+01
2.050000e-06	-1.145713e-09	-1.733725e-09	-9.534720e+00	-6.286301e+01
2.060000e-06	-1.099721e-09	-1.666457e-09	-9.151531e+00	-6.053970e+01
2.070000e-06	-1.053683e-09	-1.598217e-09	-8.767931e+00	-5.821357e+01
2.080000e-06	-1.007583e-09	-1.530443e-09	-8.383837e+00	-5.588473e+01
2.090000e-06	-9.614204e-10	-1.460545e-09	-7.999243e+00	-5.355328e+01
2.100000e-06	-9.152107e-10	-1.386896e-09	-7.614278e+00	-5.121933e+01
2.110000e-06	-8.689792e-10	-1.310329e-09	-7.229305e+00	-4.888299e+01
2.120000e-06	-8.227129e-10	-1.234880e-09	-6.844115e+00	-4.654438e+01
2.130000e-06	-7.764041e-10	-1.162405e-09	-6.458571e+00	-4.420359e+01
2.140000e-06	-7.300869e-10	-1.090703e-09	-6.072911e+00	-4.186074e+01
2.150000e-06	-6.837647e-10	-1.019538e-09	-5.687032e+00	-3.951593e+01
2.160000e-06	-6.374047e-10	-9.501888e-10	-5.300711e+00	-3.716928e+01
2.170000e-06	-5.910202e-10	-8.820527e-10	-4.914280e+00	-3.482089e+01
2.180000e-06	-5.445986e-10	-8.116863e-10	-4.527583e+00	-3.247088e+01
2.190000e-06	-4.981422e-10	-7.388685e-10	-4.140600e+00	-3.011935e+01
2.200000e-06	-4.516890e-10	-6.643335e-10	-3.753598e+00	-2.776641e+01
2.210000e-06	-4.052107e-10	-5.867446e-10	-3.366411e+00	-2.541218e+01
2.220000e-06	-3.586976e-10	-5.089007e-10	-2.979076e+00	-2.305675e+01
2.230000e-06	-3.121661e-10	-4.368143e-10	-2.591531e+00	-2.070025e+01
2.240000e-06	-2.656088e-10	-3.702774e-10	-2.203669e+00	-1.834277e+01
2.250000e-06	-2.190246e-10	-3.019991e-10	-1.815592e+00	-1.598443e+01
2.260000e-06	-1.724392e-10	-2.302455e-10	-1.427575e+00	-1.362535e+01
2.270000e-06	-1.258663e-10	-1.580032e-10	-1.039595e+00	-1.126562e+01
2.280000e-06	-7.927246e-11	-8.653744e-11	-6.514747e-01	-8.905356e+00
2.290000e-06	-3.265355e-11	-1.385534e-11	-2.631480e-01	-6.544674e+00
2.300000e-06	1.395418e-11	6.326918e-11	1.251438e-01	-4.183679e+00
2.310000e-06	6.052016e-11	1.416302e-10	5.130900e-01	-1.822482e+00
2.320000e-06	1.070846e-10	2.136209e-10	9.009863e-01	5.388070e-01
2.330000e-06	1.536664e-10	2.796713e-10	1.288815e+00	2.900079e+00
2.340000e-06	2.002149e-10	3.459951e-10	1.676472e+00	5.261225e+00
2.350000e-06	2.467536e-10	4.156814e-10	2.064181e+00	7.622134e+00
2.360000e-06	2.932895e-10	4.863964e-10	2.451752e+00	9.982696e+00
2.370000e-06	3.397962e-10	5.565395e-10	2.839047e+00	1.234280e+01
2.380000e-06	3.862981e-10	6.328796e-10	3.226260e+00	1.470234e+01
2.390000e-06	4.327801e-10	7.175978e-10	3.613290e+00	1.706121e+01
2.400000e-06	4.792188e-10	7.989105e-10	3.999980e+00	1.941929e+01
2.410000e-06	5.256516e-10	8.649443e-10	4.386707e+00	2.177647e+01
2.420000e-06	5.720665e-10	9.232448e-10	4.773296e+00	2.413265e+01
2.430000e-06	6.184536e-10	9.897567e-10	5.159668e+00	2.648772e+01
2.440000e-06	6.648277e-10	1.062919e-09	5.545973e+00	2.884156e+01
2.450000e-06	7.111695e-10	1.132619e-09	5.932005e+00	3.119407e+01
2.460000e-06	7.574783e-10	1.201001e-09	6.317736e+00	3.354514e+01
2.470000e-06	8.037420e-10	1.275528e-09	6.703116e+00	3.589466e+01
2.480000e-06	8.499418e-10	1.352896e-09	7.088080e+00	3.824251e+01
2.490000e-06	8.961116e-10	1.423700e-09	7.472862e+00	4.058860e+01
2.500000e-06	9.422490e-10	1.486263e-09	7.857262e+00	4.293280e+01
2.510000e-06	9.883233e-10	1.548154e-09	8.241110e+00	4.527502e+01
2.520000e-06	1.034334e-09	1.617400e-09	8.624436e+00	4.761515e+01
2.530000e-06	1.080294e-09	1.693470e-09	9.007180e+00	4.995306e+01
2.540000e-06	1.126207e-09	1.767394e-09	9.389515e+00	5.228867e+01
2.550000e-06	1.172043e-09	1.835913e-09	9.771270e+00	5.462185e+01
2.560000e-06	1.217818e-09	1.905705e-09	1.015261e+01	5.695249e+01
2.570000e-06	1.263527e-09	1.980070e-09	1.053342e+01	5.928050e+01
2.580000e-06	1.309154e-09	2.052056e-09	1.091343e+01	6.160576e+01
2.590000e-06	1.354714e-09	2.115131e-09	1.129297e+01	6.392817e+01
2.600000e-06	1.400198e-09	2.174583e-09	1.167198e+01	6.624761e+01
2.610000e-06	1.445618e-09	2.239964e-09	1.205042e+01	6.856398e+01
2.620000e-06	1.490992e-09	2.311752e-09	1.242848e+01	7.087717e+01
2.630000e-06	1.536310e-09	2.385636e-09	1.280600e+01	7.318707e+01
2.640000e-06	1.581576e-09	2.458362e-09	1.318293e+01	7.549358e+01
2.650000e-06	1.626789e-09	2.527527e-09	1.355938e+01	7.779659e+01
2.660000e-06	1.671929e-09	2.596384e-09	1.393536e+01	8.009599e+01
2.670000e-06	1.717015e-09	2.665751e-09	1.431090e+01	8.239167e+01
2.680000e-06	1.762043e-09	2.730612e-09	1.468584e+01	8.468353e+01
2.690000e-06	1.806987e-09	2.791448e-09	1.506004e+01	8.697146e+01
2.700000e-06	1.851861e-09	2.856382e-09	1.543365e+01	8.925536e+01
2.710000e-06	1.896665e-09	2.928575e-09	1.580674e+01	9.153512e+01
2.720000e-06	1.941396e-09	3.003518e-09	1.617914e+01	9.381062e+01
2.730000e-06	1.986062e-09	3.076605e-09	1.655092e+01	9.608178e+01
2.740000e-06	2.030656e-09	3.148051e-09	1.692219e+01	9.834848e+01
2.750000e-06	2.075152e-09	3.219037e-09	1.729268e+01	1.006106e+02
2.760000e-06	2.119562e-09	3.285130e-09	1.766246e+01	1.028681e+02
2.770000e-06	2.163917e-09	3.346141e-09	1.803167e+01	1.051208e+02
2.780000e-06	2.208204e-09	3.409316e-09	1.840017e+01	1.073686e+02
2.790000e-06	2.252408e-09	3.476959e-09	1.876803e+01	1.096114e+02
2.800000e-06	2.296531e-09	3.547884e-09	1.913528e+01	1.118491e+02
2.810000e-06	2.340564e-09	3.619407e-09	1.950182e+01	1.140817e+02
2.820000e-06	2.384487e-09	3.687312e-09	1.986754e+01	1.163089e+02
2.830000e-06	2.428305e-09	3.753693e-09	2.023243e+01	1.185308e+02
2.840000e-06	2.472038e-09	3.822146e-09	2.059667e+01	1.207471e+02
2.850000e-06	2.515665e-09	3.890524e-09	2.096006e+01	1.229579e+02
2.860000e-06	2.559172e-09	3.955451e-09	2.132245e+01	1.251629e+02
2.870000e-06	2.602543e-09	4.017114e-09	2.168385e+01	1.273622e+02
2.880000e-06	2.645780e-09	4.080974e-09	2.204422e+01	1.295555e+02
